# Survival probability for electron (anti)neutrino of the given energy
1.800000 0.961679
1.810000 0.961987
1.820000 0.962293
1.830000 0.962595
1.840000 0.962895
1.850000 0.963192
1.860000 0.963487
1.870000 0.963778
1.880000 0.964067
1.890000 0.964352
1.900000 0.964636
1.910000 0.964916
1.920000 0.965194
1.930000 0.965469
1.940000 0.965741
1.950000 0.966011
1.960000 0.966278
1.970000 0.966542
1.980000 0.966804
1.990000 0.967063
2.000000 0.967320
2.010000 0.967574
2.020000 0.967826
2.030000 0.968075
2.040000 0.968322
2.050000 0.968566
2.060000 0.968808
2.070000 0.969048
2.080000 0.969285
2.090000 0.969519
2.100000 0.969752
2.110000 0.969982
2.120000 0.970210
2.130000 0.970435
2.140000 0.970659
2.150000 0.970880
2.160000 0.971099
2.170000 0.971315
2.180000 0.971530
2.190000 0.971743
2.200000 0.971953
2.210000 0.972161
2.220000 0.972367
2.230000 0.972572
2.240000 0.972774
2.250000 0.972974
2.260000 0.973172
2.270000 0.973368
2.280000 0.973563
2.290000 0.973755
2.300000 0.973946
2.310000 0.974134
2.320000 0.974321
2.330000 0.974506
2.340000 0.974689
2.350000 0.974870
2.360000 0.975050
2.370000 0.975228
2.380000 0.975404
2.390000 0.975578
2.400000 0.975751
2.410000 0.975922
2.420000 0.976091
2.430000 0.976259
2.440000 0.976425
2.450000 0.976590
2.460000 0.976753
2.470000 0.976914
2.480000 0.977074
2.490000 0.977232
2.500000 0.977389
2.510000 0.977544
2.520000 0.977698
2.530000 0.977850
2.540000 0.978001
2.550000 0.978151
2.560000 0.978299
2.570000 0.978445
2.580000 0.978591
2.590000 0.978735
2.600000 0.978877
2.610000 0.979018
2.620000 0.979158
2.630000 0.979297
2.640000 0.979434
2.650000 0.979570
2.660000 0.979705
2.670000 0.979838
2.680000 0.979971
2.690000 0.980102
2.700000 0.980231
2.710000 0.980360
2.720000 0.980488
2.730000 0.980614
2.740000 0.980739
2.750000 0.980863
2.760000 0.980986
2.770000 0.981108
2.780000 0.981228
2.790000 0.981348
2.800000 0.981466
2.810000 0.981584
2.820000 0.981700
2.830000 0.981815
2.840000 0.981930
2.850000 0.982043
2.860000 0.982155
2.870000 0.982267
2.880000 0.982377
2.890000 0.982486
2.900000 0.982595
2.910000 0.982702
2.920000 0.982808
2.930000 0.982914
2.940000 0.983018
2.950000 0.983122
2.960000 0.983225
2.970000 0.983327
2.980000 0.983428
2.990000 0.983528
3.000000 0.983627
3.010000 0.983725
3.020000 0.983823
3.030000 0.983920
3.040000 0.984016
3.050000 0.984111
3.060000 0.984205
3.070000 0.984298
3.080000 0.984391
3.090000 0.984483
3.100000 0.984574
3.110000 0.984664
3.120000 0.984754
3.130000 0.984843
3.140000 0.984931
3.150000 0.985018
3.160000 0.985105
3.170000 0.985191
3.180000 0.985276
3.190000 0.985360
3.200000 0.985444
3.210000 0.985527
3.220000 0.985609
3.230000 0.985691
3.240000 0.985772
3.250000 0.985853
3.260000 0.985932
3.270000 0.986011
3.280000 0.986090
3.290000 0.986168
3.300000 0.986245
3.310000 0.986321
3.320000 0.986397
3.330000 0.986473
3.340000 0.986547
3.350000 0.986622
3.360000 0.986695
3.370000 0.986768
3.380000 0.986840
3.390000 0.986912
3.400000 0.986983
3.410000 0.987054
3.420000 0.987124
3.430000 0.987194
3.440000 0.987263
3.450000 0.987331
3.460000 0.987399
3.470000 0.987467
3.480000 0.987534
3.490000 0.987600
3.500000 0.987666
3.510000 0.987731
3.520000 0.987796
3.530000 0.987860
3.540000 0.987924
3.550000 0.987988
3.560000 0.988050
3.570000 0.988113
3.580000 0.988175
3.590000 0.988236
3.600000 0.988297
3.610000 0.988358
3.620000 0.988418
3.630000 0.988477
3.640000 0.988537
3.650000 0.988595
3.660000 0.988654
3.670000 0.988712
3.680000 0.988769
3.690000 0.988826
3.700000 0.988883
3.710000 0.988939
3.720000 0.988994
3.730000 0.989050
3.740000 0.989105
3.750000 0.989159
3.760000 0.989213
3.770000 0.989267
3.780000 0.989321
3.790000 0.989374
3.800000 0.989426
3.810000 0.989478
3.820000 0.989530
3.830000 0.989582
3.840000 0.989633
3.850000 0.989683
3.860000 0.989734
3.870000 0.989784
3.880000 0.989833
3.890000 0.989883
3.900000 0.989932
3.910000 0.989980
3.920000 0.990028
3.930000 0.990076
3.940000 0.990124
3.950000 0.990171
3.960000 0.990218
3.970000 0.990265
3.980000 0.990311
3.990000 0.990357
4.000000 0.990402
4.010000 0.990448
4.020000 0.990493
4.030000 0.990537
4.040000 0.990582
4.050000 0.990626
4.060000 0.990670
4.070000 0.990713
4.080000 0.990756
4.090000 0.990799
4.100000 0.990842
4.110000 0.990884
4.120000 0.990926
4.130000 0.990968
4.140000 0.991009
4.150000 0.991050
4.160000 0.991091
4.170000 0.991132
4.180000 0.991172
4.190000 0.991212
4.200000 0.991252
4.210000 0.991291
4.220000 0.991331
4.230000 0.991370
4.240000 0.991408
4.250000 0.991447
4.260000 0.991485
4.270000 0.991523
4.280000 0.991561
4.290000 0.991598
4.300000 0.991636
4.310000 0.991673
4.320000 0.991709
4.330000 0.991746
4.340000 0.991782
4.350000 0.991818
4.360000 0.991854
4.370000 0.991890
4.380000 0.991925
4.390000 0.991960
4.400000 0.991995
4.410000 0.992030
4.420000 0.992064
4.430000 0.992099
4.440000 0.992133
4.450000 0.992166
4.460000 0.992200
4.470000 0.992233
4.480000 0.992267
4.490000 0.992300
4.500000 0.992332
4.510000 0.992365
4.520000 0.992397
4.530000 0.992429
4.540000 0.992461
4.550000 0.992493
4.560000 0.992525
4.570000 0.992556
4.580000 0.992587
4.590000 0.992618
4.600000 0.992649
4.610000 0.992680
4.620000 0.992710
4.630000 0.992740
4.640000 0.992770
4.650000 0.992800
4.660000 0.992830
4.670000 0.992859
4.680000 0.992888
4.690000 0.992918
4.700000 0.992947
4.710000 0.992975
4.720000 0.993004
4.730000 0.993032
4.740000 0.993061
4.750000 0.993089
4.760000 0.993117
4.770000 0.993144
4.780000 0.993172
4.790000 0.993200
4.800000 0.993227
4.810000 0.993254
4.820000 0.993281
4.830000 0.993308
4.840000 0.993334
4.850000 0.993361
4.860000 0.993387
4.870000 0.993413
4.880000 0.993439
4.890000 0.993465
4.900000 0.993491
4.910000 0.993516
4.920000 0.993542
4.930000 0.993567
4.940000 0.993592
4.950000 0.993617
4.960000 0.993642
4.970000 0.993667
4.980000 0.993691
4.990000 0.993716
5.000000 0.993740
5.010000 0.993764
5.020000 0.993788
5.030000 0.993812
5.040000 0.993836
5.050000 0.993859
5.060000 0.993883
5.070000 0.993906
5.080000 0.993929
5.090000 0.993952
5.100000 0.993975
5.110000 0.993998
5.120000 0.994021
5.130000 0.994043
5.140000 0.994066
5.150000 0.994088
5.160000 0.994110
5.170000 0.994132
5.180000 0.994154
5.190000 0.994176
5.200000 0.994197
5.210000 0.994219
5.220000 0.994240
5.230000 0.994262
5.240000 0.994283
5.250000 0.994304
5.260000 0.994325
5.270000 0.994346
5.280000 0.994367
5.290000 0.994387
5.300000 0.994408
5.310000 0.994428
5.320000 0.994449
5.330000 0.994469
5.340000 0.994489
5.350000 0.994509
5.360000 0.994529
5.370000 0.994548
5.380000 0.994568
5.390000 0.994588
5.400000 0.994607
5.410000 0.994626
5.420000 0.994646
5.430000 0.994665
5.440000 0.994684
5.450000 0.994703
5.460000 0.994722
5.470000 0.994740
5.480000 0.994759
5.490000 0.994778
5.500000 0.994796
5.510000 0.994814
5.520000 0.994833
5.530000 0.994851
5.540000 0.994869
5.550000 0.994887
5.560000 0.994905
5.570000 0.994923
5.580000 0.994940
5.590000 0.994958
5.600000 0.994975
5.610000 0.994993
5.620000 0.995010
5.630000 0.995027
5.640000 0.995044
5.650000 0.995062
5.660000 0.995078
5.670000 0.995095
5.680000 0.995112
5.690000 0.995129
5.700000 0.995146
5.710000 0.995162
5.720000 0.995179
5.730000 0.995195
5.740000 0.995211
5.750000 0.995227
5.760000 0.995244
5.770000 0.995260
5.780000 0.995276
5.790000 0.995292
5.800000 0.995307
5.810000 0.995323
5.820000 0.995339
5.830000 0.995354
5.840000 0.995370
5.850000 0.995385
5.860000 0.995401
5.870000 0.995416
5.880000 0.995431
5.890000 0.995446
5.900000 0.995461
5.910000 0.995476
5.920000 0.995491
5.930000 0.995506
5.940000 0.995521
5.950000 0.995535
5.960000 0.995550
5.970000 0.995565
5.980000 0.995579
5.990000 0.995593
6.000000 0.995608
6.010000 0.995622
6.020000 0.995636
6.030000 0.995650
6.040000 0.995664
6.050000 0.995678
6.060000 0.995692
6.070000 0.995706
6.080000 0.995720
6.090000 0.995734
6.100000 0.995747
6.110000 0.995761
6.120000 0.995775
6.130000 0.995788
6.140000 0.995801
6.150000 0.995815
6.160000 0.995828
6.170000 0.995841
6.180000 0.995854
6.190000 0.995867
6.200000 0.995880
6.210000 0.995893
6.220000 0.995906
6.230000 0.995919
6.240000 0.995932
6.250000 0.995945
6.260000 0.995957
6.270000 0.995970
6.280000 0.995983
6.290000 0.995995
6.300000 0.996007
6.310000 0.996020
6.320000 0.996032
6.330000 0.996044
6.340000 0.996057
6.350000 0.996069
6.360000 0.996081
6.370000 0.996093
6.380000 0.996105
6.390000 0.996117
6.400000 0.996129
6.410000 0.996141
6.420000 0.996152
6.430000 0.996164
6.440000 0.996176
6.450000 0.996187
6.460000 0.996199
6.470000 0.996210
6.480000 0.996222
6.490000 0.996233
6.500000 0.996245
6.510000 0.996256
6.520000 0.996267
6.530000 0.996278
6.540000 0.996289
6.550000 0.996301
6.560000 0.996312
6.570000 0.996323
6.580000 0.996334
6.590000 0.996344
6.600000 0.996355
6.610000 0.996366
6.620000 0.996377
6.630000 0.996388
6.640000 0.996398
6.650000 0.996409
6.660000 0.996419
6.670000 0.996430
6.680000 0.996440
6.690000 0.996451
6.700000 0.996461
6.710000 0.996472
6.720000 0.996482
6.730000 0.996492
6.740000 0.996502
6.750000 0.996513
6.760000 0.996523
6.770000 0.996533
6.780000 0.996543
6.790000 0.996553
6.800000 0.996563
6.810000 0.996573
6.820000 0.996583
6.830000 0.996592
6.840000 0.996602
6.850000 0.996612
6.860000 0.996622
6.870000 0.996631
6.880000 0.996641
6.890000 0.996650
6.900000 0.996660
6.910000 0.996669
6.920000 0.996679
6.930000 0.996688
6.940000 0.996698
6.950000 0.996707
6.960000 0.996716
6.970000 0.996726
6.980000 0.996735
6.990000 0.996744
7.000000 0.996753
7.010000 0.996762
7.020000 0.996771
7.030000 0.996780
7.040000 0.996789
7.050000 0.996798
7.060000 0.996807
7.070000 0.996816
7.080000 0.996825
7.090000 0.996834
7.100000 0.996842
7.110000 0.996851
7.120000 0.996860
7.130000 0.996868
7.140000 0.996877
7.150000 0.996886
7.160000 0.996894
7.170000 0.996903
7.180000 0.996911
7.190000 0.996920
7.200000 0.996928
7.210000 0.996936
7.220000 0.996945
7.230000 0.996953
7.240000 0.996961
7.250000 0.996970
7.260000 0.996978
7.270000 0.996986
7.280000 0.996994
7.290000 0.997002
7.300000 0.997010
7.310000 0.997018
7.320000 0.997026
7.330000 0.997034
7.340000 0.997042
7.350000 0.997050
7.360000 0.997058
7.370000 0.997066
7.380000 0.997074
7.390000 0.997082
7.400000 0.997089
7.410000 0.997097
7.420000 0.997105
7.430000 0.997112
7.440000 0.997120
7.450000 0.997128
7.460000 0.997135
7.470000 0.997143
7.480000 0.997150
7.490000 0.997158
7.500000 0.997165
7.510000 0.997173
7.520000 0.997180
7.530000 0.997188
7.540000 0.997195
7.550000 0.997202
7.560000 0.997209
7.570000 0.997217
7.580000 0.997224
7.590000 0.997231
7.600000 0.997238
7.610000 0.997245
7.620000 0.997253
7.630000 0.997260
7.640000 0.997267
7.650000 0.997274
7.660000 0.997281
7.670000 0.997288
7.680000 0.997295
7.690000 0.997302
7.700000 0.997309
7.710000 0.997315
7.720000 0.997322
7.730000 0.997329
7.740000 0.997336
7.750000 0.997343
7.760000 0.997349
7.770000 0.997356
7.780000 0.997363
7.790000 0.997370
7.800000 0.997376
7.810000 0.997383
7.820000 0.997389
7.830000 0.997396
7.840000 0.997403
7.850000 0.997409
7.860000 0.997416
7.870000 0.997422
7.880000 0.997428
7.890000 0.997435
7.900000 0.997441
7.910000 0.997448
7.920000 0.997454
7.930000 0.997460
7.940000 0.997467
7.950000 0.997473
7.960000 0.997479
7.970000 0.997485
7.980000 0.997492
7.990000 0.997498
8.000000 0.997504
8.010000 0.997510
8.020000 0.997516
8.030000 0.997522
8.040000 0.997529
8.050000 0.997535
8.060000 0.997541
8.070000 0.997547
8.080000 0.997553
8.090000 0.997559
8.100000 0.997565
8.110000 0.997570
8.120000 0.997576
8.130000 0.997582
8.140000 0.997588
8.150000 0.997594
8.160000 0.997600
8.170000 0.997606
8.180000 0.997611
8.190000 0.997617
8.200000 0.997623
8.210000 0.997629
8.220000 0.997634
8.230000 0.997640
8.240000 0.997646
8.250000 0.997651
8.260000 0.997657
8.270000 0.997662
8.280000 0.997668
8.290000 0.997674
8.300000 0.997679
8.310000 0.997685
8.320000 0.997690
8.330000 0.997696
8.340000 0.997701
8.350000 0.997706
8.360000 0.997712
8.370000 0.997717
8.380000 0.997723
8.390000 0.997728
8.400000 0.997733
8.410000 0.997739
8.420000 0.997744
8.430000 0.997749
8.440000 0.997755
8.450000 0.997760
8.460000 0.997765
8.470000 0.997770
8.480000 0.997775
8.490000 0.997781
8.500000 0.997786
8.510000 0.997791
8.520000 0.997796
8.530000 0.997801
8.540000 0.997806
8.550000 0.997811
8.560000 0.997816
8.570000 0.997821
8.580000 0.997826
8.590000 0.997831
8.600000 0.997836
8.610000 0.997841
8.620000 0.997846
8.630000 0.997851
8.640000 0.997856
8.650000 0.997861
8.660000 0.997866
8.670000 0.997871
8.680000 0.997876
8.690000 0.997880
8.700000 0.997885
8.710000 0.997890
8.720000 0.997895
8.730000 0.997900
8.740000 0.997904
8.750000 0.997909
8.760000 0.997914
8.770000 0.997919
8.780000 0.997923
8.790000 0.997928
8.800000 0.997933
8.810000 0.997937
8.820000 0.997942
8.830000 0.997946
8.840000 0.997951
8.850000 0.997956
8.860000 0.997960
8.870000 0.997965
8.880000 0.997969
8.890000 0.997974
8.900000 0.997978
8.910000 0.997983
8.920000 0.997987
8.930000 0.997992
8.940000 0.997996
8.950000 0.998001
8.960000 0.998005
8.970000 0.998009
8.980000 0.998014
8.990000 0.998018
9.000000 0.998022
9.010000 0.998027
9.020000 0.998031
9.030000 0.998035
9.040000 0.998040
9.050000 0.998044
9.060000 0.998048
9.070000 0.998053
9.080000 0.998057
9.090000 0.998061
9.100000 0.998065
9.110000 0.998069
9.120000 0.998074
9.130000 0.998078
9.140000 0.998082
9.150000 0.998086
9.160000 0.998090
9.170000 0.998094
9.180000 0.998098
9.190000 0.998103
9.200000 0.998107
9.210000 0.998111
9.220000 0.998115
9.230000 0.998119
9.240000 0.998123
9.250000 0.998127
