# Survival probability for electron (anti)neutrino of the given energy
1.800000 0.967774
1.810000 0.968054
1.820000 0.968331
1.830000 0.968604
1.840000 0.968875
1.850000 0.969142
1.860000 0.969407
1.870000 0.969669
1.880000 0.969927
1.890000 0.970183
1.900000 0.970436
1.910000 0.970687
1.920000 0.970934
1.930000 0.971179
1.940000 0.971421
1.950000 0.971660
1.960000 0.971897
1.970000 0.972131
1.980000 0.972362
1.990000 0.972591
2.000000 0.972817
2.010000 0.973041
2.020000 0.973262
2.030000 0.973481
2.040000 0.973698
2.050000 0.973912
2.060000 0.974123
2.070000 0.974333
2.080000 0.974540
2.090000 0.974745
2.100000 0.974947
2.110000 0.975148
2.120000 0.975346
2.130000 0.975542
2.140000 0.975736
2.150000 0.975927
2.160000 0.976117
2.170000 0.976305
2.180000 0.976490
2.190000 0.976674
2.200000 0.976856
2.210000 0.977035
2.220000 0.977213
2.230000 0.977389
2.240000 0.977563
2.250000 0.977735
2.260000 0.977905
2.270000 0.978074
2.280000 0.978240
2.290000 0.978405
2.300000 0.978569
2.310000 0.978730
2.320000 0.978890
2.330000 0.979048
2.340000 0.979204
2.350000 0.979359
2.360000 0.979512
2.370000 0.979664
2.380000 0.979814
2.390000 0.979962
2.400000 0.980109
2.410000 0.980255
2.420000 0.980399
2.430000 0.980541
2.440000 0.980682
2.450000 0.980821
2.460000 0.980960
2.470000 0.981096
2.480000 0.981232
2.490000 0.981365
2.500000 0.981498
2.510000 0.981629
2.520000 0.981759
2.530000 0.981888
2.540000 0.982015
2.550000 0.982141
2.560000 0.982266
2.570000 0.982390
2.580000 0.982512
2.590000 0.982633
2.600000 0.982753
2.610000 0.982872
2.620000 0.982989
2.630000 0.983106
2.640000 0.983221
2.650000 0.983335
2.660000 0.983448
2.670000 0.983560
2.680000 0.983671
2.690000 0.983781
2.700000 0.983890
2.710000 0.983998
2.720000 0.984104
2.730000 0.984210
2.740000 0.984315
2.750000 0.984418
2.760000 0.984521
2.770000 0.984623
2.780000 0.984723
2.790000 0.984823
2.800000 0.984922
2.810000 0.985020
2.820000 0.985117
2.830000 0.985213
2.840000 0.985308
2.850000 0.985403
2.860000 0.985496
2.870000 0.985589
2.880000 0.985681
2.890000 0.985772
2.900000 0.985862
2.910000 0.985951
2.920000 0.986039
2.930000 0.986127
2.940000 0.986214
2.950000 0.986300
2.960000 0.986385
2.970000 0.986470
2.980000 0.986553
2.990000 0.986636
3.000000 0.986719
3.010000 0.986800
3.020000 0.986881
3.030000 0.986961
3.040000 0.987041
3.050000 0.987119
3.060000 0.987197
3.070000 0.987274
3.080000 0.987351
3.090000 0.987427
3.100000 0.987502
3.110000 0.987577
3.120000 0.987651
3.130000 0.987724
3.140000 0.987797
3.150000 0.987869
3.160000 0.987941
3.170000 0.988012
3.180000 0.988082
3.190000 0.988151
3.200000 0.988221
3.210000 0.988289
3.220000 0.988357
3.230000 0.988424
3.240000 0.988491
3.250000 0.988557
3.260000 0.988623
3.270000 0.988688
3.280000 0.988753
3.290000 0.988817
3.300000 0.988880
3.310000 0.988943
3.320000 0.989005
3.330000 0.989067
3.340000 0.989129
3.350000 0.989190
3.360000 0.989250
3.370000 0.989310
3.380000 0.989369
3.390000 0.989428
3.400000 0.989487
3.410000 0.989545
3.420000 0.989602
3.430000 0.989660
3.440000 0.989716
3.450000 0.989772
3.460000 0.989828
3.470000 0.989883
3.480000 0.989938
3.490000 0.989993
3.500000 0.990047
3.510000 0.990100
3.520000 0.990153
3.530000 0.990206
3.540000 0.990258
3.550000 0.990310
3.560000 0.990362
3.570000 0.990413
3.580000 0.990463
3.590000 0.990514
3.600000 0.990563
3.610000 0.990613
3.620000 0.990662
3.630000 0.990711
3.640000 0.990759
3.650000 0.990807
3.660000 0.990855
3.670000 0.990902
3.680000 0.990949
3.690000 0.990996
3.700000 0.991042
3.710000 0.991088
3.720000 0.991133
3.730000 0.991179
3.740000 0.991223
3.750000 0.991268
3.760000 0.991312
3.770000 0.991356
3.780000 0.991399
3.790000 0.991443
3.800000 0.991486
3.810000 0.991528
3.820000 0.991570
3.830000 0.991612
3.840000 0.991654
3.850000 0.991695
3.860000 0.991736
3.870000 0.991777
3.880000 0.991818
3.890000 0.991858
3.900000 0.991898
3.910000 0.991937
3.920000 0.991976
3.930000 0.992015
3.940000 0.992054
3.950000 0.992093
3.960000 0.992131
3.970000 0.992169
3.980000 0.992206
3.990000 0.992244
4.000000 0.992281
4.010000 0.992318
4.020000 0.992354
4.030000 0.992391
4.040000 0.992427
4.050000 0.992462
4.060000 0.992498
4.070000 0.992533
4.080000 0.992568
4.090000 0.992603
4.100000 0.992638
4.110000 0.992672
4.120000 0.992706
4.130000 0.992740
4.140000 0.992774
4.150000 0.992807
4.160000 0.992841
4.170000 0.992874
4.180000 0.992906
4.190000 0.992939
4.200000 0.992971
4.210000 0.993003
4.220000 0.993035
4.230000 0.993067
4.240000 0.993098
4.250000 0.993129
4.260000 0.993160
4.270000 0.993191
4.280000 0.993222
4.290000 0.993252
4.300000 0.993283
4.310000 0.993313
4.320000 0.993342
4.330000 0.993372
4.340000 0.993401
4.350000 0.993431
4.360000 0.993460
4.370000 0.993489
4.380000 0.993517
4.390000 0.993546
4.400000 0.993574
4.410000 0.993602
4.420000 0.993630
4.430000 0.993658
4.440000 0.993685
4.450000 0.993713
4.460000 0.993740
4.470000 0.993767
4.480000 0.993794
4.490000 0.993820
4.500000 0.993847
4.510000 0.993873
4.520000 0.993900
4.530000 0.993926
4.540000 0.993951
4.550000 0.993977
4.560000 0.994003
4.570000 0.994028
4.580000 0.994053
4.590000 0.994078
4.600000 0.994103
4.610000 0.994128
4.620000 0.994153
4.630000 0.994177
4.640000 0.994201
4.650000 0.994225
4.660000 0.994249
4.670000 0.994273
4.680000 0.994297
4.690000 0.994321
4.700000 0.994344
4.710000 0.994367
4.720000 0.994390
4.730000 0.994413
4.740000 0.994436
4.750000 0.994459
4.760000 0.994481
4.770000 0.994504
4.780000 0.994526
4.790000 0.994548
4.800000 0.994570
4.810000 0.994592
4.820000 0.994614
4.830000 0.994636
4.840000 0.994657
4.850000 0.994679
4.860000 0.994700
4.870000 0.994721
4.880000 0.994742
4.890000 0.994763
4.900000 0.994784
4.910000 0.994804
4.920000 0.994825
4.930000 0.994845
4.940000 0.994865
4.950000 0.994886
4.960000 0.994906
4.970000 0.994926
4.980000 0.994945
4.990000 0.994965
5.000000 0.994985
5.010000 0.995004
5.020000 0.995024
5.030000 0.995043
5.040000 0.995062
5.050000 0.995081
5.060000 0.995100
5.070000 0.995119
5.080000 0.995137
5.090000 0.995156
5.100000 0.995174
5.110000 0.995193
5.120000 0.995211
5.130000 0.995229
5.140000 0.995247
5.150000 0.995265
5.160000 0.995283
5.170000 0.995301
5.180000 0.995319
5.190000 0.995336
5.200000 0.995354
5.210000 0.995371
5.220000 0.995388
5.230000 0.995406
5.240000 0.995423
5.250000 0.995440
5.260000 0.995457
5.270000 0.995473
5.280000 0.995490
5.290000 0.995507
5.300000 0.995523
5.310000 0.995540
5.320000 0.995556
5.330000 0.995572
5.340000 0.995588
5.350000 0.995605
5.360000 0.995621
5.370000 0.995637
5.380000 0.995652
5.390000 0.995668
5.400000 0.995684
5.410000 0.995699
5.420000 0.995715
5.430000 0.995730
5.440000 0.995746
5.450000 0.995761
5.460000 0.995776
5.470000 0.995791
5.480000 0.995806
5.490000 0.995821
5.500000 0.995836
5.510000 0.995851
5.520000 0.995865
5.530000 0.995880
5.540000 0.995894
5.550000 0.995909
5.560000 0.995923
5.570000 0.995938
5.580000 0.995952
5.590000 0.995966
5.600000 0.995980
5.610000 0.995994
5.620000 0.996008
5.630000 0.996022
5.640000 0.996036
5.650000 0.996049
5.660000 0.996063
5.670000 0.996077
5.680000 0.996090
5.690000 0.996104
5.700000 0.996117
5.710000 0.996130
5.720000 0.996144
5.730000 0.996157
5.740000 0.996170
5.750000 0.996183
5.760000 0.996196
5.770000 0.996209
5.780000 0.996222
5.790000 0.996234
5.800000 0.996247
5.810000 0.996260
5.820000 0.996272
5.830000 0.996285
5.840000 0.996297
5.850000 0.996310
5.860000 0.996322
5.870000 0.996334
5.880000 0.996347
5.890000 0.996359
5.900000 0.996371
5.910000 0.996383
5.920000 0.996395
5.930000 0.996407
5.940000 0.996419
5.950000 0.996430
5.960000 0.996442
5.970000 0.996454
5.980000 0.996465
5.990000 0.996477
6.000000 0.996489
6.010000 0.996500
6.020000 0.996511
6.030000 0.996523
6.040000 0.996534
6.050000 0.996545
6.060000 0.996557
6.070000 0.996568
6.080000 0.996579
6.090000 0.996590
6.100000 0.996601
6.110000 0.996612
6.120000 0.996623
6.130000 0.996633
6.140000 0.996644
6.150000 0.996655
6.160000 0.996665
6.170000 0.996676
6.180000 0.996687
6.190000 0.996697
6.200000 0.996708
6.210000 0.996718
6.220000 0.996728
6.230000 0.996739
6.240000 0.996749
6.250000 0.996759
6.260000 0.996769
6.270000 0.996779
6.280000 0.996790
6.290000 0.996800
6.300000 0.996810
6.310000 0.996819
6.320000 0.996829
6.330000 0.996839
6.340000 0.996849
6.350000 0.996859
6.360000 0.996868
6.370000 0.996878
6.380000 0.996888
6.390000 0.996897
6.400000 0.996907
6.410000 0.996916
6.420000 0.996926
6.430000 0.996935
6.440000 0.996945
6.450000 0.996954
6.460000 0.996963
6.470000 0.996972
6.480000 0.996982
6.490000 0.996991
6.500000 0.997000
6.510000 0.997009
6.520000 0.997018
6.530000 0.997027
6.540000 0.997036
6.550000 0.997045
6.560000 0.997054
6.570000 0.997062
6.580000 0.997071
6.590000 0.997080
6.600000 0.997089
6.610000 0.997097
6.620000 0.997106
6.630000 0.997115
6.640000 0.997123
6.650000 0.997132
6.660000 0.997140
6.670000 0.997149
6.680000 0.997157
6.690000 0.997165
6.700000 0.997174
6.710000 0.997182
6.720000 0.997190
6.730000 0.997198
6.740000 0.997207
6.750000 0.997215
6.760000 0.997223
6.770000 0.997231
6.780000 0.997239
6.790000 0.997247
6.800000 0.997255
6.810000 0.997263
6.820000 0.997271
6.830000 0.997279
6.840000 0.997287
6.850000 0.997294
6.860000 0.997302
6.870000 0.997310
6.880000 0.997318
6.890000 0.997325
6.900000 0.997333
6.910000 0.997340
6.920000 0.997348
6.930000 0.997356
6.940000 0.997363
6.950000 0.997371
6.960000 0.997378
6.970000 0.997385
6.980000 0.997393
6.990000 0.997400
7.000000 0.997407
7.010000 0.997415
7.020000 0.997422
7.030000 0.997429
7.040000 0.997436
7.050000 0.997444
7.060000 0.997451
7.070000 0.997458
7.080000 0.997465
7.090000 0.997472
7.100000 0.997479
7.110000 0.997486
7.120000 0.997493
7.130000 0.997500
7.140000 0.997507
7.150000 0.997514
7.160000 0.997521
7.170000 0.997527
7.180000 0.997534
7.190000 0.997541
7.200000 0.997548
7.210000 0.997554
7.220000 0.997561
7.230000 0.997568
7.240000 0.997574
7.250000 0.997581
7.260000 0.997588
7.270000 0.997594
7.280000 0.997601
7.290000 0.997607
7.300000 0.997614
7.310000 0.997620
7.320000 0.997626
7.330000 0.997633
7.340000 0.997639
7.350000 0.997646
7.360000 0.997652
7.370000 0.997658
7.380000 0.997664
7.390000 0.997671
7.400000 0.997677
7.410000 0.997683
7.420000 0.997689
7.430000 0.997695
7.440000 0.997701
7.450000 0.997708
7.460000 0.997714
7.470000 0.997720
7.480000 0.997726
7.490000 0.997732
7.500000 0.997738
7.510000 0.997744
7.520000 0.997750
7.530000 0.997755
7.540000 0.997761
7.550000 0.997767
7.560000 0.997773
7.570000 0.997779
7.580000 0.997785
7.590000 0.997790
7.600000 0.997796
7.610000 0.997802
7.620000 0.997808
7.630000 0.997813
7.640000 0.997819
7.650000 0.997824
7.660000 0.997830
7.670000 0.997836
7.680000 0.997841
7.690000 0.997847
7.700000 0.997852
7.710000 0.997858
7.720000 0.997863
7.730000 0.997869
7.740000 0.997874
7.750000 0.997880
7.760000 0.997885
7.770000 0.997890
7.780000 0.997896
7.790000 0.997901
7.800000 0.997906
7.810000 0.997912
7.820000 0.997917
7.830000 0.997922
7.840000 0.997928
7.850000 0.997933
7.860000 0.997938
7.870000 0.997943
7.880000 0.997948
7.890000 0.997953
7.900000 0.997959
7.910000 0.997964
7.920000 0.997969
7.930000 0.997974
7.940000 0.997979
7.950000 0.997984
7.960000 0.997989
7.970000 0.997994
7.980000 0.997999
7.990000 0.998004
8.000000 0.998009
8.010000 0.998014
8.020000 0.998019
8.030000 0.998023
8.040000 0.998028
8.050000 0.998033
8.060000 0.998038
8.070000 0.998043
8.080000 0.998048
8.090000 0.998052
8.100000 0.998057
8.110000 0.998062
8.120000 0.998067
8.130000 0.998071
8.140000 0.998076
8.150000 0.998081
8.160000 0.998085
8.170000 0.998090
8.180000 0.998095
8.190000 0.998099
8.200000 0.998104
8.210000 0.998108
8.220000 0.998113
8.230000 0.998117
8.240000 0.998122
8.250000 0.998126
8.260000 0.998131
8.270000 0.998135
8.280000 0.998140
8.290000 0.998144
8.300000 0.998149
8.310000 0.998153
8.320000 0.998158
8.330000 0.998162
8.340000 0.998166
8.350000 0.998171
8.360000 0.998175
8.370000 0.998179
8.380000 0.998184
8.390000 0.998188
8.400000 0.998192
8.410000 0.998196
8.420000 0.998201
8.430000 0.998205
8.440000 0.998209
8.450000 0.998213
8.460000 0.998217
8.470000 0.998222
8.480000 0.998226
8.490000 0.998230
8.500000 0.998234
8.510000 0.998238
8.520000 0.998242
8.530000 0.998246
8.540000 0.998250
8.550000 0.998254
8.560000 0.998258
8.570000 0.998262
8.580000 0.998267
8.590000 0.998271
8.600000 0.998274
8.610000 0.998278
8.620000 0.998282
8.630000 0.998286
8.640000 0.998290
8.650000 0.998294
8.660000 0.998298
8.670000 0.998302
8.680000 0.998306
8.690000 0.998310
8.700000 0.998314
8.710000 0.998317
8.720000 0.998321
8.730000 0.998325
8.740000 0.998329
8.750000 0.998333
8.760000 0.998336
8.770000 0.998340
8.780000 0.998344
8.790000 0.998348
8.800000 0.998351
8.810000 0.998355
8.820000 0.998359
8.830000 0.998362
8.840000 0.998366
8.850000 0.998370
8.860000 0.998373
8.870000 0.998377
8.880000 0.998381
8.890000 0.998384
8.900000 0.998388
8.910000 0.998391
8.920000 0.998395
8.930000 0.998399
8.940000 0.998402
8.950000 0.998406
8.960000 0.998409
8.970000 0.998413
8.980000 0.998416
8.990000 0.998420
9.000000 0.998423
9.010000 0.998427
9.020000 0.998430
9.030000 0.998434
9.040000 0.998437
9.050000 0.998440
9.060000 0.998444
9.070000 0.998447
9.080000 0.998451
9.090000 0.998454
9.100000 0.998457
9.110000 0.998461
9.120000 0.998464
9.130000 0.998467
9.140000 0.998471
9.150000 0.998474
9.160000 0.998477
9.170000 0.998481
9.180000 0.998484
9.190000 0.998487
9.200000 0.998490
9.210000 0.998494
9.220000 0.998497
9.230000 0.998500
9.240000 0.998503
9.250000 0.998507
