# Survival probability for electron (anti)neutrino of the given energy
1.800000 0.950250
1.810000 0.950650
1.820000 0.951047
1.830000 0.951440
1.840000 0.951829
1.850000 0.952215
1.860000 0.952597
1.870000 0.952975
1.880000 0.953350
1.890000 0.953721
1.900000 0.954088
1.910000 0.954452
1.920000 0.954813
1.930000 0.955170
1.940000 0.955523
1.950000 0.955874
1.960000 0.956220
1.970000 0.956564
1.980000 0.956903
1.990000 0.957240
2.000000 0.957573
2.010000 0.957903
2.020000 0.958230
2.030000 0.958554
2.040000 0.958874
2.050000 0.959191
2.060000 0.959505
2.070000 0.959816
2.080000 0.960124
2.090000 0.960429
2.100000 0.960730
2.110000 0.961029
2.120000 0.961325
2.130000 0.961618
2.140000 0.961908
2.150000 0.962195
2.160000 0.962479
2.170000 0.962760
2.180000 0.963039
2.190000 0.963315
2.200000 0.963588
2.210000 0.963858
2.220000 0.964126
2.230000 0.964391
2.240000 0.964654
2.250000 0.964914
2.260000 0.965171
2.270000 0.965426
2.280000 0.965678
2.290000 0.965928
2.300000 0.966175
2.310000 0.966420
2.320000 0.966662
2.330000 0.966903
2.340000 0.967140
2.350000 0.967376
2.360000 0.967609
2.370000 0.967840
2.380000 0.968068
2.390000 0.968295
2.400000 0.968519
2.410000 0.968741
2.420000 0.968961
2.430000 0.969179
2.440000 0.969394
2.450000 0.969608
2.460000 0.969819
2.470000 0.970029
2.480000 0.970236
2.490000 0.970442
2.500000 0.970645
2.510000 0.970847
2.520000 0.971047
2.530000 0.971244
2.540000 0.971440
2.550000 0.971634
2.560000 0.971826
2.570000 0.972017
2.580000 0.972205
2.590000 0.972392
2.600000 0.972577
2.610000 0.972761
2.620000 0.972942
2.630000 0.973122
2.640000 0.973300
2.650000 0.973477
2.660000 0.973652
2.670000 0.973825
2.680000 0.973997
2.690000 0.974167
2.700000 0.974336
2.710000 0.974503
2.720000 0.974668
2.730000 0.974832
2.740000 0.974995
2.750000 0.975156
2.760000 0.975315
2.770000 0.975473
2.780000 0.975630
2.790000 0.975785
2.800000 0.975939
2.810000 0.976091
2.820000 0.976242
2.830000 0.976392
2.840000 0.976540
2.850000 0.976687
2.860000 0.976833
2.870000 0.976978
2.880000 0.977121
2.890000 0.977263
2.900000 0.977403
2.910000 0.977543
2.920000 0.977681
2.930000 0.977818
2.940000 0.977954
2.950000 0.978088
2.960000 0.978222
2.970000 0.978354
2.980000 0.978485
2.990000 0.978615
3.000000 0.978744
3.010000 0.978872
3.020000 0.978998
3.030000 0.979124
3.040000 0.979248
3.050000 0.979372
3.060000 0.979494
3.070000 0.979615
3.080000 0.979736
3.090000 0.979855
3.100000 0.979973
3.110000 0.980091
3.120000 0.980207
3.130000 0.980322
3.140000 0.980436
3.150000 0.980550
3.160000 0.980662
3.170000 0.980774
3.180000 0.980884
3.190000 0.980994
3.200000 0.981103
3.210000 0.981211
3.220000 0.981318
3.230000 0.981424
3.240000 0.981529
3.250000 0.981633
3.260000 0.981737
3.270000 0.981839
3.280000 0.981941
3.290000 0.982042
3.300000 0.982142
3.310000 0.982242
3.320000 0.982340
3.330000 0.982438
3.340000 0.982535
3.350000 0.982631
3.360000 0.982727
3.370000 0.982822
3.380000 0.982916
3.390000 0.983009
3.400000 0.983101
3.410000 0.983193
3.420000 0.983284
3.430000 0.983374
3.440000 0.983464
3.450000 0.983553
3.460000 0.983641
3.470000 0.983729
3.480000 0.983815
3.490000 0.983902
3.500000 0.983987
3.510000 0.984072
3.520000 0.984156
3.530000 0.984240
3.540000 0.984323
3.550000 0.984405
3.560000 0.984486
3.570000 0.984568
3.580000 0.984648
3.590000 0.984728
3.600000 0.984807
3.610000 0.984885
3.620000 0.984963
3.630000 0.985041
3.640000 0.985118
3.650000 0.985194
3.660000 0.985270
3.670000 0.985345
3.680000 0.985419
3.690000 0.985493
3.700000 0.985567
3.710000 0.985640
3.720000 0.985712
3.730000 0.985784
3.740000 0.985855
3.750000 0.985926
3.760000 0.985996
3.770000 0.986066
3.780000 0.986135
3.790000 0.986204
3.800000 0.986272
3.810000 0.986340
3.820000 0.986408
3.830000 0.986474
3.840000 0.986541
3.850000 0.986607
3.860000 0.986672
3.870000 0.986737
3.880000 0.986801
3.890000 0.986865
3.900000 0.986929
3.910000 0.986992
3.920000 0.987054
3.930000 0.987117
3.940000 0.987178
3.950000 0.987240
3.960000 0.987301
3.970000 0.987361
3.980000 0.987421
3.990000 0.987481
4.000000 0.987540
4.010000 0.987599
4.020000 0.987657
4.030000 0.987715
4.040000 0.987773
4.050000 0.987830
4.060000 0.987887
4.070000 0.987943
4.080000 0.987999
4.090000 0.988055
4.100000 0.988110
4.110000 0.988165
4.120000 0.988220
4.130000 0.988274
4.140000 0.988328
4.150000 0.988381
4.160000 0.988434
4.170000 0.988487
4.180000 0.988539
4.190000 0.988591
4.200000 0.988643
4.210000 0.988694
4.220000 0.988745
4.230000 0.988796
4.240000 0.988846
4.250000 0.988896
4.260000 0.988946
4.270000 0.988995
4.280000 0.989044
4.290000 0.989093
4.300000 0.989141
4.310000 0.989189
4.320000 0.989237
4.330000 0.989284
4.340000 0.989331
4.350000 0.989378
4.360000 0.989425
4.370000 0.989471
4.380000 0.989517
4.390000 0.989562
4.400000 0.989608
4.410000 0.989653
4.420000 0.989698
4.430000 0.989742
4.440000 0.989786
4.450000 0.989830
4.460000 0.989874
4.470000 0.989917
4.480000 0.989960
4.490000 0.990003
4.500000 0.990045
4.510000 0.990088
4.520000 0.990130
4.530000 0.990171
4.540000 0.990213
4.550000 0.990254
4.560000 0.990295
4.570000 0.990336
4.580000 0.990376
4.590000 0.990417
4.600000 0.990456
4.610000 0.990496
4.620000 0.990536
4.630000 0.990575
4.640000 0.990614
4.650000 0.990653
4.660000 0.990691
4.670000 0.990729
4.680000 0.990768
4.690000 0.990805
4.700000 0.990843
4.710000 0.990880
4.720000 0.990917
4.730000 0.990954
4.740000 0.990991
4.750000 0.991028
4.760000 0.991064
4.770000 0.991100
4.780000 0.991136
4.790000 0.991171
4.800000 0.991207
4.810000 0.991242
4.820000 0.991277
4.830000 0.991312
4.840000 0.991346
4.850000 0.991381
4.860000 0.991415
4.870000 0.991449
4.880000 0.991483
4.890000 0.991516
4.900000 0.991549
4.910000 0.991583
4.920000 0.991616
4.930000 0.991648
4.940000 0.991681
4.950000 0.991713
4.960000 0.991746
4.970000 0.991778
4.980000 0.991810
4.990000 0.991841
5.000000 0.991873
5.010000 0.991904
5.020000 0.991935
5.030000 0.991966
5.040000 0.991997
5.050000 0.992028
5.060000 0.992058
5.070000 0.992088
5.080000 0.992119
5.090000 0.992148
5.100000 0.992178
5.110000 0.992208
5.120000 0.992237
5.130000 0.992267
5.140000 0.992296
5.150000 0.992325
5.160000 0.992353
5.170000 0.992382
5.180000 0.992410
5.190000 0.992439
5.200000 0.992467
5.210000 0.992495
5.220000 0.992523
5.230000 0.992550
5.240000 0.992578
5.250000 0.992605
5.260000 0.992633
5.270000 0.992660
5.280000 0.992687
5.290000 0.992713
5.300000 0.992740
5.310000 0.992767
5.320000 0.992793
5.330000 0.992819
5.340000 0.992845
5.350000 0.992871
5.360000 0.992897
5.370000 0.992923
5.380000 0.992948
5.390000 0.992973
5.400000 0.992999
5.410000 0.993024
5.420000 0.993049
5.430000 0.993074
5.440000 0.993098
5.450000 0.993123
5.460000 0.993147
5.470000 0.993172
5.480000 0.993196
5.490000 0.993220
5.500000 0.993244
5.510000 0.993268
5.520000 0.993292
5.530000 0.993315
5.540000 0.993339
5.550000 0.993362
5.560000 0.993385
5.570000 0.993408
5.580000 0.993431
5.590000 0.993454
5.600000 0.993477
5.610000 0.993499
5.620000 0.993522
5.630000 0.993544
5.640000 0.993566
5.650000 0.993589
5.660000 0.993611
5.670000 0.993633
5.680000 0.993654
5.690000 0.993676
5.700000 0.993698
5.710000 0.993719
5.720000 0.993741
5.730000 0.993762
5.740000 0.993783
5.750000 0.993804
5.760000 0.993825
5.770000 0.993846
5.780000 0.993867
5.790000 0.993887
5.800000 0.993908
5.810000 0.993928
5.820000 0.993949
5.830000 0.993969
5.840000 0.993989
5.850000 0.994009
5.860000 0.994029
5.870000 0.994049
5.880000 0.994068
5.890000 0.994088
5.900000 0.994108
5.910000 0.994127
5.920000 0.994146
5.930000 0.994166
5.940000 0.994185
5.950000 0.994204
5.960000 0.994223
5.970000 0.994242
5.980000 0.994261
5.990000 0.994279
6.000000 0.994298
6.010000 0.994316
6.020000 0.994335
6.030000 0.994353
6.040000 0.994371
6.050000 0.994390
6.060000 0.994408
6.070000 0.994426
6.080000 0.994444
6.090000 0.994461
6.100000 0.994479
6.110000 0.994497
6.120000 0.994514
6.130000 0.994532
6.140000 0.994549
6.150000 0.994566
6.160000 0.994584
6.170000 0.994601
6.180000 0.994618
6.190000 0.994635
6.200000 0.994652
6.210000 0.994669
6.220000 0.994685
6.230000 0.994702
6.240000 0.994719
6.250000 0.994735
6.260000 0.994752
6.270000 0.994768
6.280000 0.994784
6.290000 0.994801
6.300000 0.994817
6.310000 0.994833
6.320000 0.994849
6.330000 0.994865
6.340000 0.994881
6.350000 0.994896
6.360000 0.994912
6.370000 0.994928
6.380000 0.994943
6.390000 0.994959
6.400000 0.994974
6.410000 0.994990
6.420000 0.995005
6.430000 0.995020
6.440000 0.995035
6.450000 0.995050
6.460000 0.995065
6.470000 0.995080
6.480000 0.995095
6.490000 0.995110
6.500000 0.995125
6.510000 0.995139
6.520000 0.995154
6.530000 0.995168
6.540000 0.995183
6.550000 0.995197
6.560000 0.995212
6.570000 0.995226
6.580000 0.995240
6.590000 0.995254
6.600000 0.995268
6.610000 0.995282
6.620000 0.995296
6.630000 0.995310
6.640000 0.995324
6.650000 0.995338
6.660000 0.995352
6.670000 0.995365
6.680000 0.995379
6.690000 0.995392
6.700000 0.995406
6.710000 0.995419
6.720000 0.995433
6.730000 0.995446
6.740000 0.995459
6.750000 0.995472
6.760000 0.995486
6.770000 0.995499
6.780000 0.995512
6.790000 0.995525
6.800000 0.995538
6.810000 0.995550
6.820000 0.995563
6.830000 0.995576
6.840000 0.995589
6.850000 0.995601
6.860000 0.995614
6.870000 0.995626
6.880000 0.995639
6.890000 0.995651
6.900000 0.995664
6.910000 0.995676
6.920000 0.995688
6.930000 0.995701
6.940000 0.995713
6.950000 0.995725
6.960000 0.995737
6.970000 0.995749
6.980000 0.995761
6.990000 0.995773
7.000000 0.995785
7.010000 0.995796
7.020000 0.995808
7.030000 0.995820
7.040000 0.995832
7.050000 0.995843
7.060000 0.995855
7.070000 0.995866
7.080000 0.995878
7.090000 0.995889
7.100000 0.995901
7.110000 0.995912
7.120000 0.995923
7.130000 0.995934
7.140000 0.995946
7.150000 0.995957
7.160000 0.995968
7.170000 0.995979
7.180000 0.995990
7.190000 0.996001
7.200000 0.996012
7.210000 0.996023
7.220000 0.996034
7.230000 0.996044
7.240000 0.996055
7.250000 0.996066
7.260000 0.996076
7.270000 0.996087
7.280000 0.996098
7.290000 0.996108
7.300000 0.996119
7.310000 0.996129
7.320000 0.996140
7.330000 0.996150
7.340000 0.996160
7.350000 0.996170
7.360000 0.996181
7.370000 0.996191
7.380000 0.996201
7.390000 0.996211
7.400000 0.996221
7.410000 0.996231
7.420000 0.996241
7.430000 0.996251
7.440000 0.996261
7.450000 0.996271
7.460000 0.996281
7.470000 0.996291
7.480000 0.996300
7.490000 0.996310
7.500000 0.996320
7.510000 0.996330
7.520000 0.996339
7.530000 0.996349
7.540000 0.996358
7.550000 0.996368
7.560000 0.996377
7.570000 0.996387
7.580000 0.996396
7.590000 0.996405
7.600000 0.996415
7.610000 0.996424
7.620000 0.996433
7.630000 0.996442
7.640000 0.996452
7.650000 0.996461
7.660000 0.996470
7.670000 0.996479
7.680000 0.996488
7.690000 0.996497
7.700000 0.996506
7.710000 0.996515
7.720000 0.996524
7.730000 0.996533
7.740000 0.996541
7.750000 0.996550
7.760000 0.996559
7.770000 0.996568
7.780000 0.996576
7.790000 0.996585
7.800000 0.996594
7.810000 0.996602
7.820000 0.996611
7.830000 0.996619
7.840000 0.996628
7.850000 0.996636
7.860000 0.996645
7.870000 0.996653
7.880000 0.996662
7.890000 0.996670
7.900000 0.996678
7.910000 0.996686
7.920000 0.996695
7.930000 0.996703
7.940000 0.996711
7.950000 0.996719
7.960000 0.996727
7.970000 0.996736
7.980000 0.996744
7.990000 0.996752
8.000000 0.996760
8.010000 0.996768
8.020000 0.996776
8.030000 0.996784
8.040000 0.996791
8.050000 0.996799
8.060000 0.996807
8.070000 0.996815
8.080000 0.996823
8.090000 0.996830
8.100000 0.996838
8.110000 0.996846
8.120000 0.996854
8.130000 0.996861
8.140000 0.996869
8.150000 0.996876
8.160000 0.996884
8.170000 0.996891
8.180000 0.996899
8.190000 0.996906
8.200000 0.996914
8.210000 0.996921
8.220000 0.996929
8.230000 0.996936
8.240000 0.996943
8.250000 0.996951
8.260000 0.996958
8.270000 0.996965
8.280000 0.996972
8.290000 0.996980
8.300000 0.996987
8.310000 0.996994
8.320000 0.997001
8.330000 0.997008
8.340000 0.997015
8.350000 0.997022
8.360000 0.997029
8.370000 0.997036
8.380000 0.997043
8.390000 0.997050
8.400000 0.997057
8.410000 0.997064
8.420000 0.997071
8.430000 0.997078
8.440000 0.997085
8.450000 0.997092
8.460000 0.997098
8.470000 0.997105
8.480000 0.997112
8.490000 0.997119
8.500000 0.997125
8.510000 0.997132
8.520000 0.997139
8.530000 0.997145
8.540000 0.997152
8.550000 0.997159
8.560000 0.997165
8.570000 0.997172
8.580000 0.997178
8.590000 0.997185
8.600000 0.997191
8.610000 0.997198
8.620000 0.997204
8.630000 0.997210
8.640000 0.997217
8.650000 0.997223
8.660000 0.997229
8.670000 0.997236
8.680000 0.997242
8.690000 0.997248
8.700000 0.997255
8.710000 0.997261
8.720000 0.997267
8.730000 0.997273
8.740000 0.997279
8.750000 0.997286
8.760000 0.997292
8.770000 0.997298
8.780000 0.997304
8.790000 0.997310
8.800000 0.997316
8.810000 0.997322
8.820000 0.997328
8.830000 0.997334
8.840000 0.997340
8.850000 0.997346
8.860000 0.997352
8.870000 0.997358
8.880000 0.997364
8.890000 0.997369
8.900000 0.997375
8.910000 0.997381
8.920000 0.997387
8.930000 0.997393
8.940000 0.997398
8.950000 0.997404
8.960000 0.997410
8.970000 0.997416
8.980000 0.997421
8.990000 0.997427
9.000000 0.997433
9.010000 0.997438
9.020000 0.997444
9.030000 0.997450
9.040000 0.997455
9.050000 0.997461
9.060000 0.997466
9.070000 0.997472
9.080000 0.997477
9.090000 0.997483
9.100000 0.997488
9.110000 0.997494
9.120000 0.997499
9.130000 0.997505
9.140000 0.997510
9.150000 0.997515
9.160000 0.997521
9.170000 0.997526
9.180000 0.997531
9.190000 0.997537
9.200000 0.997542
9.210000 0.997547
9.220000 0.997553
9.230000 0.997558
9.240000 0.997563
9.250000 0.997568
