# Reactor spectrum convolved with cross section at the given neutrino energy
1.8 0
1.9 2.38713e-06
2 4.00555e-06
2.1 5.59539e-06
2.2 7.19129e-06
2.3 8.78588e-06
2.4 1.03625e-05
2.5 1.1902e-05
2.6 1.33852e-05
2.7 1.47939e-05
2.8 1.61112e-05
2.9 1.73224e-05
3 1.84147e-05
3.1 1.93781e-05
3.2 2.0205e-05
3.3 2.08903e-05
3.4 2.14317e-05
3.5 2.18294e-05
3.6 2.20858e-05
3.7 2.22056e-05
3.8 2.21951e-05
3.9 2.20624e-05
4 2.18168e-05
4.1 2.14684e-05
4.2 2.10281e-05
4.3 2.05069e-05
4.4 1.9916e-05
4.5 1.92665e-05
4.6 1.8569e-05
4.7 1.78336e-05
4.8 1.70698e-05
4.9 1.62862e-05
5 1.54908e-05
5.1 1.46908e-05
5.2 1.38923e-05
5.3 1.31008e-05
5.4 1.23211e-05
5.5 1.15571e-05
5.6 1.0812e-05
5.7 1.00886e-05
5.8 9.38903e-06
5.9 8.71486e-06
6 8.06733e-06
6.1 7.4473e-06
6.2 6.85529e-06
6.3 6.29159e-06
6.4 5.75628e-06
6.5 5.24924e-06
6.6 4.77027e-06
6.7 4.31904e-06
6.8 3.89516e-06
6.9 3.49818e-06
7 3.12762e-06
7.1 2.78299e-06
7.2 2.46374e-06
7.3 2.16933e-06
7.4 1.89915e-06
7.5 1.65259e-06
7.6 1.42892e-06
7.7 1.22739e-06
7.8 1.04711e-06
7.9 8.87118e-07
8 7.46308e-07
8.1 6.23477e-07
8.2 5.17313e-07
8.3 4.26412e-07
8.4 3.49309e-07
8.5 2.84509e-07
8.6 2.30525e-07
8.7 1.85915e-07
8.8 1.49315e-07
8.9 1.19471e-07
9 9.52569e-08
9.1 7.56869e-08
9.2 5.99167e-08
9.3 4.72379e-08
9.4 3.70659e-08
9.5 2.89241e-08
9.6 2.24271e-08
9.7 1.72634e-08
9.8 1.31808e-08
9.9 9.97397e-09
