# Reactor spectrum convolved with cross section: CVC over non-CVC at the given neutrino energy
1.9 0.912689
2 0.931721
2.1 0.945221
2.2 0.955154
2.3 0.962678
2.4 0.968513
2.5 0.973126
2.6 0.976834
2.7 0.979857
2.8 0.982352
2.9 0.984433
3 0.986186
3.1 0.987675
3.2 0.98895
3.3 0.990049
3.4 0.991003
3.5 0.991835
3.6 0.992565
3.7 0.993209
3.8 0.993779
3.9 0.994286
4 0.994739
4.1 0.995144
4.2 0.995509
4.3 0.995838
4.4 0.996136
4.5 0.996406
4.6 0.996651
4.7 0.996875
4.8 0.997079
4.9 0.997266
5 0.997437
5.1 0.997595
5.2 0.99774
5.3 0.997874
5.4 0.997998
5.5 0.998112
5.6 0.998218
5.7 0.998316
5.8 0.998407
5.9 0.998492
6 0.998571
6.1 0.998645
6.2 0.998713
6.3 0.998778
6.4 0.998838
6.5 0.998894
6.6 0.998947
6.7 0.998996
6.8 0.999042
6.9 0.999086
7 0.999127
7.1 0.999166
7.2 0.999202
7.3 0.999237
7.4 0.999269
7.5 0.9993
7.6 0.999329
7.7 0.999356
7.8 0.999382
7.9 0.999406
8 0.99943
8.1 0.999452
8.2 0.999473
8.3 0.999493
8.4 0.999511
8.5 0.999529
8.6 0.999547
8.7 0.999563
8.8 0.999578
8.9 0.999593
9 0.999607
9.1 0.999621
9.2 0.999634
9.3 0.999646
9.4 0.999658
9.5 0.999669
9.6 0.99968
9.7 0.99969
9.8 0.9997
9.9 0.999709
