# Reactor spectrum convolved with cross section at the given neutrino energy
1.8 0
1.9 2.61549e-06
2 4.29909e-06
2.1 5.91967e-06
2.2 7.52893e-06
2.3 9.1265e-06
2.4 1.06994e-05
2.5 1.22307e-05
2.6 1.37026e-05
2.7 1.5098e-05
2.8 1.64006e-05
2.9 1.75963e-05
3 1.86727e-05
3.1 1.96199e-05
3.2 2.04307e-05
3.3 2.11003e-05
3.4 2.16263e-05
3.5 2.20091e-05
3.6 2.22513e-05
3.7 2.23574e-05
3.8 2.2334e-05
3.9 2.21892e-05
4 2.19322e-05
4.1 2.15732e-05
4.2 2.11229e-05
4.3 2.05926e-05
4.4 1.99933e-05
4.5 1.9336e-05
4.6 1.86314e-05
4.7 1.78895e-05
4.8 1.71198e-05
4.9 1.63308e-05
5 1.55306e-05
5.1 1.47262e-05
5.2 1.39237e-05
5.3 1.31287e-05
5.4 1.23458e-05
5.5 1.15789e-05
5.6 1.08313e-05
5.7 1.01056e-05
5.8 9.40401e-06
5.9 8.72802e-06
6 8.07888e-06
6.1 7.45741e-06
6.2 6.86412e-06
6.3 6.29929e-06
6.4 5.76297e-06
6.5 5.25506e-06
6.6 4.7753e-06
6.7 4.32338e-06
6.8 3.89889e-06
6.9 3.50138e-06
7 3.13036e-06
7.1 2.78531e-06
7.2 2.46571e-06
7.3 2.17098e-06
7.4 1.90054e-06
7.5 1.65374e-06
7.6 1.42988e-06
7.7 1.22818e-06
7.8 1.04776e-06
7.9 8.87645e-07
8 7.46734e-07
8.1 6.23819e-07
8.2 5.17586e-07
8.3 4.26628e-07
8.4 3.49479e-07
8.5 2.84643e-07
8.6 2.3063e-07
8.7 1.85996e-07
8.8 1.49378e-07
8.9 1.19519e-07
9 9.52943e-08
9.1 7.57156e-08
9.2 5.99386e-08
9.3 4.72546e-08
9.4 3.70785e-08
9.5 2.89337e-08
9.6 2.24343e-08
9.7 1.72687e-08
9.8 1.31848e-08
9.9 9.97687e-09
